Num;Lat;Lng;Dist (m);MaxSpeed (m/s);Slope (rad);Altitude (m);Duree (s)
0;48.787651;2.046165;0;4.177777777777778;0;166.3475952148438;2345.4
1;48.787607571428566;2.046076857142857;8.063376185124236;4.177777777777778;0.0010578279471071905;166.3561248779297;2345.4
2;48.78756414285714;2.045988714285714;16.126756845292128;4.177777777777778;-0.004261599250857802;166.3217620849609;2345.4
3;48.78752071428571;2.045900571428571;24.190141981448434;4.177777777777778;-0.007247783999105679;166.2633209228516;2345.4
4;48.78747728571428;2.0458124285714288;32.253531593092355;4.177777777777778;0.007980142289810461;166.3276672363281;2345.4
5;48.78743385714285;2.045724285714286;40.31692568027441;4.177777777777778;-0.0105311398425567;166.2427520751953;2345.4
6;48.78739042857143;2.045636142857143;48.38032424249379;4.177777777777778;0.002577386390134982;166.2635345458984;2345.4
7;48.787347;2.045548;56.44372728069526;4.177777777777778;-0.0002176203704258628;166.2617797851562;2345.4
8;48.787285;2.045616;64.94940358876117;6.946843853820598;-0.07568199191468024;165.6186676025391;2345.4
9;48.787266;2.045637;67.5629209400736;6.946843853820598;-0.015034475306931597;165.5793762207031;2345.4
10;48.78720644444444;2.045700666666667;75.6629462898356;6.946843853820598;-0.029887092811254796;165.3373260498047;2345.4
11;48.78714688888889;2.0457643333333335;83.76297482660654;6.946843853820598;-0.01934589225790915;165.1806335449219;2345.4
12;48.78708733333333;2.045828;91.86300655167793;6.946843853820598;-0.013966900885802219;165.0675048828125;2345.4
13;48.78702777777778;2.045891666666667;99.9630414637575;6.946843853820598;-0.013561841522720173;164.9576568603516;2345.4
14;48.78696822222222;2.045955333333333;108.06307956411806;6.946843853820598;-0.017015232698284314;164.8198394775391;2345.4
15;48.78690866666667;2.046019;116.16312085150479;6.946843853820598;-0.017625666026823725;164.6770782470703;2345.4
16;48.78684911111111;2.0460826666666665;124.26316532719048;6.946843853820598;-0.015351614011560545;164.552734375;2345.4
17;48.78678955555556;2.046146333333333;132.36321298988287;6.946843853820598;-0.009420973319123362;164.4764251708984;2345.4
18;48.78673;2.04621;140.46326384087345;6.946843853820598;-0.007448571738667076;164.4160919189453;2345.4
19;48.786679666666664;2.04627;147.57992243247853;6.946843853820598;-0.0035913661295712564;164.3905334472656;2345.4
20;48.78662933333334;2.04633;154.69658374677485;6.946843853820598;-4.5025968813303456e-05;164.3902130126953;2345.4
21;48.786579;2.04639;161.81324778496455;6.946843853820598;-0.004819939573394326;164.3559112548828;2345.4
22;48.786529;2.046447;168.766626091061;6.946843853820598;-0.010948292486523403;164.27978515625;2345.4
23;48.78646975;2.0465145000000002;177.00440308022118;6.946843853820598;-0.017888562092258996;164.1324310302734;2345.4
24;48.7864105;2.046582;185.2421835744465;6.946843853820598;-0.022283085150668284;163.9488830566406;2345.4
25;48.78635125;2.0466495;193.47996757377553;6.946843853820598;-0.02511417518111846;163.7420196533203;2345.4
26;48.786292;2.046717;201.7177550781882;6.946843853820598;-0.031253256041368103;163.4846038818359;2345.4
27;48.786232749999996;2.0467845000000002;209.95554608831583;6.946843853820598;-0.03516558947591575;163.1949768066406;2345.4
28;48.7861735;2.0468520000000003;218.19334060289418;6.946843853820598;-0.03796811223748144;162.8822784423828;2345.4
29;48.78611425;2.0469195;226.43113862253503;6.946843853820598;-0.03824243410964774;162.5673217773438;2345.4
30;48.786055;2.046987;234.66894014727694;6.946843853820598;-0.015591348101317232;162.4388885498047;2345.4
31;48.785991499999994;2.047063;243.66109051777687;6.946843853820598;-0.01351622809876763;162.3173522949219;2345.4
32;48.785928;2.047139;252.65324525031215;6.946843853820598;-0.01937472157832844;162.1431427001953;2345.4
33;48.785883;2.0471935;259.05485992272503;6.946843853820598;0.038580733603649615;162.3900604248047;2345.4
34;48.785838;2.047248;265.4564768283493;6.946843853820598;0.04096857645974167;162.6522521972656;2345.4
35;48.785873499999994;2.0473195000000004;272.01562240141936;6.946843853820598;0.011913458294737504;162.7303924560547;2345.4
36;48.785909;2.047391;278.57476501551486;6.946843853820598;0.004627104719268671;162.7607421875;2345.4
37;48.785956727272726;2.0474867272727275;287.36971327282606;6.946843853820598;0.007390951181725119;162.8257446289062;2345.4
38;48.78600445454545;2.047582454545455;296.16465621079993;6.946843853820598;0.008744261045254912;162.9026489257812;2345.4
39;48.78605218181818;2.0476781818181817;304.959593830362;6.946843853820598;0.03207954783701662;163.1847381591797;2345.4
40;48.78609990909091;2.047773909090909;313.75452613108536;6.946843853820598;0.024864430103119756;163.4033966064453;2345.4
41;48.78614763636364;2.0478696363636364;322.54945311294205;6.946843853820598;-0.004719090946796484;163.3618927001953;2345.4
42;48.78619536363636;2.0479653636363637;331.3443747754533;11.115384615384617;-0.00111037111886272;163.3521270751953;2345.4
43;48.78624309090909;2.048061090909091;340.1392911195705;11.115384615384617;0.01841412404624789;163.5140686035156;2345.4
44;48.78629081818182;2.0481568181818184;348.9342021448149;11.115384615384617;0.05184811584611205;163.9698638916016;2345.4
45;48.78633854545455;2.0482525454545453;357.7291078511585;11.115384615384617;0.023038805928037927;164.1724700927734;2345.4
46;48.78638627272727;2.0483482727272726;366.5240082381745;11.115384615384617;-0.0034126704139985373;164.1424560546875;2345.4
47;48.786434;2.048444;375.3189033067883;11.115384615384617;-6.592847103915005e-05;164.1418762207031;2345.4
48;48.7864735;2.0485255;382.73127059192154;11.115384615384617;0.007942000821190164;164.2007446289062;2345.4
49;48.786513;2.048607;390.1436340911365;11.115384615384617;0.012810764296079588;164.2957000732422;2345.4
50;48.786548;2.04868;396.75795161746987;11.115384615384617;0.013477512090358853;164.3848419189453;2345.4
51;48.786587;2.0487595;404.0194545777539;11.115384615384617;-0.004837272614237656;164.3497161865234;2345.4
52;48.786626;2.048839;411.28095390785495;11.115384615384617;-0.00794520330067355;164.2920227050781;2345.4
53;48.78666375;2.04891475;418.2392795818021;11.115384615384617;-0.003515197532691555;164.2675628662109;2345.4
54;48.7867015;2.0489905;425.197601925715;11.115384615384617;0.016760992048896348;164.3841857910156;2345.4
55;48.78673925;2.04906625;432.1559209400432;11.115384615384617;0.0503413781000798;164.7343292236328;2345.4
56;48.786777;2.049142;439.1142366252364;11.115384615384617;0.06314442445036748;165.1734161376953;2345.4
57;48.78682111111111;2.0492305555555554;447.24747573674;11.115384615384617;0.04512807324662229;165.5403289794922;2345.4
58;48.786865222222225;2.049319111111111;455.3807102995913;11.115384615384617;0.0038253841739903276;165.5714416503906;2345.4
59;48.786909333333334;2.0494076666666667;463.51394031283576;11.115384615384617;0.004981077926070975;165.6119537353516;2345.4
60;48.78695344444444;2.0494962222222224;471.64716577694816;11.115384615384617;0.017859597713902723;165.7572021484375;2345.4
61;48.78699755555556;2.0495847777777776;479.7803866923774;11.115384615384617;-0.00018948676306226213;165.7556610107422;2345.4
62;48.78704166666667;2.0496733333333332;487.91360305822093;11.115384615384617;0.03097573759382855;166.0075531005859;2345.4
63;48.787085777777776;2.049761888888889;496.0468148749276;11.115384615384617;0.022393228260446926;166.1896667480469;2345.4
64;48.78712988888889;2.0498504444444445;504.18002214297223;11.115384615384617;0.013928688802323072;166.3029479980469;2345.4
65;48.787174;2.049939;512.3132248614004;11.115384615384617;7.692054087193582e-05;166.3035736083984;2345.4
66;48.787203;2.049999;517.7648802404716;11.115384615384617;-0.012178435309075008;166.2371826171875;2345.4
67;48.787246;2.050082;525.500296183024;11.115384615384617;-0.0158681642090955;166.1144409179688;2345.4
68;48.787223;2.050139;530.3971256195834;11.115384615384617;0.015393918888257401;166.1898193359375;2345.4
69;48.78721;2.050204;535.3736952515202;11.115384615384617;0.011786460870986261;166.2484741210938;2345.4
70;48.78721;2.050272;540.3554840957433;11.115384615384617;0.012542960291117065;166.3109588623047;2345.4
71;48.787161;2.050329;547.2202465906784;11.115384615384617;0.022767578656008064;166.4672393798828;2345.4
72;48.787112;2.050386;554.0850115654424;11.115384615384617;0.03606113375116549;166.7147369384766;2345.4
73;48.787048;2.0504582142857144;562.9525995974517;11.115384615384617;-0.010699748391507148;166.6198577880859;2345.4
74;48.786984000000004;2.0505304285714288;571.8201916544414;11.115384615384617;-0.06116902223805746;166.0777740478516;2345.4
75;48.78692;2.050602642857143;580.687787737679;11.115384615384617;-0.045958098847136655;165.6703796386719;2345.4
76;48.786856;2.050674857142857;589.5553878465104;11.115384615384617;-0.03625350102035081;165.3489685058594;2345.4
77;48.786792;2.0507470714285714;598.4229919809737;11.115384615384617;-0.030244792402023244;165.080810546875;2345.4
78;48.786728000000004;2.0508192857142857;607.290600140415;11.115384615384617;-0.011312342289188591;164.9804992675781;2345.4
79;48.786664;2.0508915;616.1582123261016;11.115384615384617;-0.0004904088007047325;164.9761505126953;2345.4
80;48.7866;2.0509637142857144;625.025828537399;11.115384615384617;0.005453026047983523;165.0245056152344;2345.4
81;48.786536000000005;2.051035928571429;633.8934487736723;11.115384615384617;0.005105431064778818;165.0697784423828;2345.4
82;48.786472;2.051108142857143;642.761073036189;11.115384615384617;0.0026654142693309174;165.0934143066406;2345.4
83;48.786408;2.051180357142857;651.6287013242951;11.115384615384617;-0.0014884315155867442;165.0802154541016;2345.4
84;48.786344;2.0512525714285714;660.4963336380288;11.115384615384617;-0.0027600522738365535;165.0557403564453;2345.4
85;48.786280000000005;2.051324785714286;669.3639699767359;11.115384615384617;-0.00265852770358521;165.0321655273438;2345.4
86;48.786216;2.051397;678.231610341684;11.115384615384617;-0.005317071783112783;164.9850158691406;2345.4
87;48.786163;2.0514666666666668;686.027899181616;11.115384615384617;-0.014693125604603868;164.8704681396484;2345.4
88;48.78611;2.0515363333333334;693.8241915505449;11.115384615384617;-0.01885859847975928;164.7234497070312;2345.4
89;48.786057;2.051606;701.6204874484699;11.115384615384617;-0.016519388038000373;164.5946655273438;2345.4
90;48.786004000000005;2.0516756666666667;709.416786874793;11.115384615384617;-0.00986436511582581;164.5177612304688;2345.4
91;48.785951000000004;2.0517453333333333;717.2130898307081;11.115384615384617;-0.010396741661678966;164.4367065429688;2345.4
92;48.785898;2.051815;725.009396315617;11.115384615384617;-0.006813002508907993;164.3835906982422;2345.4
93;48.78584566666667;2.0518886666666667;732.9461207313695;11.115384615384617;0.00057099886054828;164.3881225585938;2345.4
94;48.78579333333334;2.0519623333333334;740.8828489738474;11.115384615384617;0.004275773245774731;164.4220581054688;2345.4
95;48.785741;2.052036;748.8195810442082;11.115384615384617;0.0020648235259557663;164.4384460449219;2345.4
96;48.7857025;2.0521112500000003;755.7996427226279;11.115384615384617;0.001934658655823269;164.4519500732422;2345.4
97;48.785664;2.0521865000000004;762.7797077416798;11.115384615384617;0.0030255013703984323;164.4730682373047;2345.4
98;48.7856255;2.05226175;769.7597761008525;11.115384615384617;0.0029839647561976414;164.493896484375;2345.4
99;48.785587;2.052337;776.7398478011656;11.115384615384617;0.005412687407791192;164.5316772460938;2345.4
100;48.78554575;2.0524375;785.414690145387;11.115384615384617;0.004647215962025628;164.5719909667969;2345.4
101;48.7855045;2.052538;794.0895376262109;11.115384615384617;0.007741300529793015;164.6391448974609;2345.4
102;48.78546325;2.0526385;802.7643902444158;11.115384615384617;0.007962932759309056;164.7082214355469;2345.4
103;48.785422;2.052739;811.4392479996094;11.115384615384617;0.011296326721660147;164.8062133789062;2345.4
104;48.78539;2.0528445;819.948320788234;11.115384615384617;0.010919240582878785;164.8991241455078;2345.4
105;48.785358;2.05295;828.4573980538623;11.115384615384617;0.015418859509752612;165.0303192138672;2345.4
106;48.785340500000004;2.0530495;836.0024459727007;11.115384615384617;0.019986273686025523;165.1811065673828;2345.4
107;48.785323;2.053149;843.547496347761;11.115384615384617;0.033241544473025464;165.4318695068359;2345.4
108;48.78530625;2.05325975;851.8725443593823;11.115384615384617;0.018740431427227512;165.5878753662109;2345.4
109;48.7852895;2.0533704999999998;860.1975950105259;13.849809885931558;-0.004917627264637323;165.5469360351562;2345.4
110;48.78527275;2.05348125;868.5226483012545;13.849809885931558;0.011798495528977812;165.6451568603516;2345.4
111;48.785256;2.053592;876.8477042315359;13.849809885931558;0.012188922302238942;165.7466278076172;2345.4
112;48.78524625;2.0537027500000002;885.0338517494101;13.849809885931558;0.0068613524408140955;165.8027954101562;2345.4
113;48.785236499999996;2.0538135;893.2200008298844;13.849809885931558;0.011543862513771909;165.8972930908203;2345.4
114;48.78522675;2.0539242499999997;901.4061514727813;13.849809885931558;0.001431534125589141;165.9090118408203;2345.4
115;48.785217;2.054035;909.5923036782375;13.849809885931558;-0.0027232719128429733;165.88671875;2345.4
116;48.785221;2.0541519999999998;918.1757826069362;13.849809885931558;0.006476180297673414;165.9423065185547;2345.4
117;48.785225;2.0542689999999997;926.7592608533218;13.849809885931558;-0.00953391190760145;165.8604736328125;2345.4
118;48.785229;2.054386;935.3427384174679;13.849809885931558;-0.006543735097480697;165.8043060302734;2345.4
119;48.785233;2.054503;943.9262152992275;13.849809885931558;0.0007057442856897827;165.8103637695312;2345.4
120;48.78524753333333;2.05462;952.6491610001361;13.849809885931558;-0.000888629383885642;165.8026123046875;2345.4
121;48.78526206666667;2.054737;961.3721042616108;13.849809885931558;0.009458447701654146;165.8851165771484;2345.4
122;48.785276599999996;2.054854;970.0950450835368;13.849809885931558;0.0034530681891520396;165.9152374267578;2345.4
123;48.78529113333333;2.054971;978.8179834661422;13.849809885931558;0.009608897193478195;165.9990539550781;2345.4
124;48.785305666666666;2.055088;987.5409194093122;13.849809885931558;0.014832622579905815;166.1284332275391;2345.4
125;48.7853202;2.055205;996.2638529130463;13.849809885931558;0.006990150460901222;166.1894073486328;2345.4
126;48.785334733333336;2.055322;1004.986783977344;13.849809885931558;-0.010147707678945706;166.1008911132812;2345.4
127;48.785349266666664;2.0554390000000002;1013.7097126020902;13.849809885931558;-0.013702489170716743;165.9813690185547;2345.4
128;48.7853638;2.055556;1022.4326387875134;13.849809885931558;-0.0060612719541001244;165.9284973144531;2345.4
129;48.785378333333334;2.055673;1031.1555625334984;13.849809885931558;-0.0029387855804399367;165.9028625488281;2345.4
130;48.78539286666667;2.05579;1039.878483840045;13.849809885931558;-0.006806481978996881;165.8434906005859;2345.4
131;48.785407400000004;2.055907;1048.6014027071524;13.849809885931558;-0.021461760494310613;165.6562957763672;2345.4
132;48.78542193333333;2.0560240000000003;1057.324319134706;13.849809885931558;-0.0022233317305605607;165.6369018554688;2345.4
133;48.78543646666667;2.056141;1066.047233122934;13.849809885931558;0.0003533538745077548;165.6399841308594;2345.4
134;48.785451;2.056258;1074.770144671721;13.849809885931558;0.0005615179655332272;165.6448822021484;2345.4
135;48.78546275;2.05635425;1081.941837207669;13.849809885931558;0.0001617007377295168;165.6460418701172;2345.4
136;48.7854745;2.0564505000000004;1089.1135281202232;13.849809885931558;0.0005659527378955974;165.6501007080078;2345.4
137;48.78548625;2.0565467500000003;1096.285217409319;13.849809885931558;0.001391478473889332;165.6600799560547;2345.4
138;48.785498;2.056643;1103.4569050749885;13.849809885931558;0.0054829627654644384;165.6994018554688;2345.4
139;48.7855105;2.0567415000000002;1110.806053524278;13.849809885931558;0.010167651129823329;165.7741241455078;2345.4
140;48.785523;2.05684;1118.1552002083233;13.849809885931558;0.010342069152100964;165.8501281738281;2345.4
141;48.78553788888889;2.0569565555555553;1126.8535394510059;13.849809885931558;0.003234784861437005;165.8782653808594;2345.4
142;48.785552777777774;2.057073111111111;1135.5518762063618;13.849809885931558;-0.007066053607258418;165.8168029785156;2345.4
143;48.785567666666665;2.0571896666666665;1144.2502104746911;13.849809885931558;-0.012853521441234306;165.7050018310547;2345.4
144;48.78558255555556;2.057306222222222;1152.948542255843;13.849809885931558;-0.016048294980389885;165.5654144287109;2345.4
145;48.78559744444444;2.0574227777777776;1161.6468715496665;13.849809885931558;-0.008336153183434239;165.4929046630859;2345.4
146;48.78561233333333;2.057539333333333;1170.3451983564619;13.849809885931558;-0.0026365974792389815;165.469970703125;2345.4
147;48.785627222222224;2.0576558888888887;1179.043522676078;13.849809885931558;-0.0003718950037842043;165.4667358398438;2345.4
148;48.78564211111111;2.0577724444444443;1187.7418445083645;13.849809885931558;0.00027190444080447463;165.4691009521484;2345.4
149;48.785657;2.057889;1196.440163853621;13.849809885931558;-0.00020875250028470113;165.46728515625;2345.4
150;48.785667000000004;2.05799575;1204.3397319285968;13.849809885931558;0.0001641858217854082;165.4685821533203;2345.4
151;48.785677;2.0581025;1212.2392984605294;13.849809885931558;0.0027370781689174026;165.4902038574219;2345.4
152;48.785686999999996;2.05820925;1220.1388634495297;13.849809885931558;0.0027061730106579633;165.5115814208984;2345.4
153;48.785697;2.058316;1228.0384268957084;13.849809885931558;-0.0005408477537908447;165.5073089599609;2345.4
154;48.785692999999995;2.0583975;1234.025970507705;13.849809885931558;-0.003024981764387349;165.4891967773438;2345.4
155;48.785689;2.058479;1240.0135145942897;13.849809885931558;-0.003695220306177272;165.4670715332031;2345.4
156;48.7856635;2.058567;1247.056703671537;13.849809885931558;-0.024565796889560766;165.2940673828125;2345.4
157;48.785638;2.058655;1254.0998957476045;13.849809885931558;-0.01087150697851364;165.2174987792969;2345.4
158;48.785584;2.05871425;1261.50919010687;13.849809885931558;0.01089656405888387;165.2982330322266;2345.4
159;48.785529999999994;2.0587735;1268.9184872033552;13.849809885931558;-0.006163856605945996;165.2525634765625;2345.4
160;48.785475999999996;2.05883275;1276.3277870357792;13.849809885931558;-0.013814964334893074;165.1502075195312;2345.4
161;48.785422;2.058892;1283.737089604782;13.849809885931558;-0.005327717917042522;165.1107330322266;2345.4
162;48.785361249999994;2.0589615;1292.1963071758748;13.849809885931558;0.004168608190614639;165.14599609375;2345.4
163;48.7853005;2.059031;1300.6555284565645;13.849809885931558;-0.002087004367826782;165.1283416748047;2345.4
164;48.78523975;2.0591005;1309.1147534474815;13.849809885931558;0.0012897206559724821;165.1392517089844;2345.4
165;48.785179;2.05917;1317.573982149256;13.849809885931558;-0.005606251645862459;165.0918273925781;2345.4
166;48.78512;2.0592360000000003;1325.7239442913278;13.849809885931558;-0.01147528897401124;164.9983062744141;2345.4
167;48.785061;2.059302;1333.8739098062508;13.849809885931558;-0.014214615707984561;164.8824615478516;2345.4
168;48.7850405;2.059356;1338.4399130105508;13.849809885931558;-0.03699242678042943;164.7135925292969;2345.4
169;48.78502;2.05941;1343.0059176151494;13.849809885931558;0.025196685902839917;164.8286285400391;2345.4
170;48.7850155;2.0595015;1349.7282954614634;13.849809885931558;0.010480089090410942;164.8990783691406;2345.4
171;48.785011;2.059593;1356.4506739072197;13.849809885931558;0.01220528516071453;164.9811248779297;2345.4
172;48.784989499999995;2.0596695;1362.5440087293246;13.849809885931558;0.01754265981832537;165.0880126953125;2345.4
